Agent energy file
Z [A]       Energy [kcal/mol]
45  3.81806  
44.8493  3.90152  
44.546  4.05623  
44.0862  4.29055  
43.4638  4.61812  
42.6696  4.82326  
41.8755  5.04364  
41.0813  5.28089  
40.2872  5.53694  
39.4931  5.81399  
38.6989  6.11461  
37.9048  6.44182  
37.1107  6.79915  
36.3165  7.19083  
35.5224  7.62194  
34.7282  8.09863  
33.9341  8.62848  
33.14  9.22096  
32.3458  9.88808  
31.5517  10.6454  
30.7576  11.5135  
29.9634  12.5198  
29.1693  13.7021  
28.3751  15.1128  
27.581  16.8326  
26.7869  19.0184  
25.9927  22.0178  
25.1986  26.3482  
24.4044  33.1856  
23.6103  45.0693  
22.8162  68.6491  
22.022  28.7952  
21.2675  27.7096  
20.9523  27.0597  
21.1517  27.0262  
21.7036  26.831  
22.2677  26.1436  
22.4905  25.6898  
22.2179  25.8561  
21.5452  26.068  
20.7332  25.7929  
20.0725  25.295  
19.7972  25.634  
19.2222  26.0381  
18.5522  26.0922  
18.0085  25.958  
17.7557  26.0151  
17.8796  26.4933  
18.3835  27.2533  
19.1559  27.709  
19.9204  27.5125  
20.3074  28.0761  
20.9083  28.2539  
21.3268  28.1872  
21.2652  28.6818  
20.7133  29.3057  
19.991  23.3411  
19.2687  30.5415  
18.4773  30.5358  
18.2034  31.1253  
18.709  32.4651  
19.2146  33.8737  
19.8497  34.5796  
19.8163  36.3091  
19.139  37.5414  
18.9907  39.3422  
19.7726  40.8217  
19.9638  42.57  
20.1551  44.5859  
19.9419  47.1851  
19.7288  50.303  
19.1887  52.5302  
18.6486  52.811  
18.1085  51.2264  
17.5684  48.2952  
17.0283  44.6957  
16.4883  41.0044  
15.9482  37.5857  
15.4081  34.608  
14.868  32.1093  
14.3279  30.0978  
13.7878  28.5507  
13.2478  27.2305  
12.7077  26.4632  
13.5692  28.8615  
14.4308  32.7766  
15.2924  39.5451  
16.1539  52.217  
17.0155  77.6342  
17.877  23.7793  
18.7386  24.7113  
19.6002  25.8775  
20.4617  27.8281  
21.3233  30.4708  
22.1848  33.0093  
23.0464  34.3001  
23.3722  36.2016  
22.5315  38.2843  
22.2577  40.2475  
21.9838  42.0693  
21.71  43.6583  
21.4362  44.9233  
21.1623  45.7859  
20.8885  46.1921  
20.6146  46.1218  
20.3408  45.5916  
20.067  44.6522  
19.7931  43.7746  
19.5193  42.7582  
19.2454  41.5551  
18.9716  40.243  
18.6978  38.8884  
18.4239  37.5435  
18.1501  36.246  
17.8763  35.0202  
17.6024  33.8798  
17.3286  32.8301  
17.0547  31.8708  
16.7809  30.9976  
16.5071  30.2042  
16.2332  29.4832  
15.9594  28.8271  
15.6855  28.2287  
15.4117  27.6814  
15.1379  27.1794  
14.864  26.7177  
14.5902  26.2921  
14.3164  25.8991  
14.0425  25.5359  
13.7687  25.6375  
14.5917  27.2947  
15.4148  29.5126  
16.2379  32.5041  
17.061  36.6773  
17.884  42.7606  
18.7071  51.8669  
19.5302  65.6437  
20.3532  86.6789  
21.1763  42.8675  
21.9994  54.1897  
22.8224  80.1984  
23.6455  28.0649  
23.6831  29.3225  
22.9883  31.2053  
22.2935  33.4389  
21.5987  36.0378  
20.9039  38.9248  
20.2092  41.7689  
19.599  45.1539  
19.0223  48.4482  
18.4456  50.6396  
17.8689  51.1586  
17.2922  49.852  
16.7154  47.0823  
16.1387  43.5082  
15.562  39.7642  
14.9853  36.2776  
14.4086  33.2539  
13.8319  30.7445  
13.2552  28.7192  
12.6785  27.1163  
12.1018  26.0839  
12.8944  28.1033  
13.6871  31.1487  
14.4797  36.1058  
15.2723  44.5805  
16.065  60.4656  
16.8576  94.2589  
17.6503  29.0194  
18.4429  32.1679  
19.2356  36.9468  
20.0282  44.5095  
20.8208  58.3354  
21.6135  79.2942  
22.4061  27.3068  
23.1988  29.6235  
23.9914  32.721  
24.784  37.1277  
25.5767  43.4371  
26.3693  52.1194  
27.162  62.69  
27.9546  72.2274  
28.7473  75.4779  
29.5399  69.4952  
30.3325  57.4327  
31.1252  44.681  
31.9178  34.2172  
32.7105  26.5132  
33.5031  21.0411  
34.2957  17.1538  
35.0884  14.3455  
35.881  12.2199  
35.1603  13.9921  
34.4396  16.2324  
33.7189  19.0665  
32.9982  22.6075  
32.2775  26.8812  
31.5568  31.6839  
30.8361  36.4153  
30.1154  40.0911  
29.3947  41.6549  
28.674  40.7872  
27.9533  37.9194  
28.3599  36.5319  
29.0062  33.9403  
28.6802  32.7619  
27.8681  30.8116  
27.3504  28.9236  
27.2339  27.6478  
27.3486  26.5501  
27.4706  25.481  
27.4035  24.6563  
27.0243  24.3595  
26.2553  24.2378  
25.4863  24.5331  
24.7172  25.2513  
23.9482  26.4207  
23.1792  27.5843  
22.4101  28.7762  
21.6411  29.8239  
20.872  30.5352  
20.103  30.5475  
19.5293  31.302  
18.6418  31.1108  
18.0592  30.5892  
18.1327  31.1448  
18.8366  31.7198  
19.5405  31.6043  
19.9141  31.6033  
19.6445  32.5665  
18.9312  33.143  
18.378  33.2956  
18.4685  34.5932  
19.2157  36.0077  
19.9735  36.3901  
19.833  38.5691  
18.9492  39.7719  
18.7256  41.2506  
18.502  42.6635  
18.2784  43.9385  
18.0548  44.9994  
17.8312  45.7743  
17.6076  46.2049  
17.384  46.2557  
17.1604  45.9202  
16.9368  45.2215  
16.7132  44.2083  
16.4896  42.9473  
16.266  41.4944  
16.0424  39.964  
15.8188  38.6476  
15.5952  37.277  
15.3716  35.983  
15.148  34.853  
14.9243  33.7285  
14.7007  32.6355  
14.4771  31.667  
14.2535  30.7969  
14.0299  29.9637  
13.8063  29.1647  
13.5827  28.4319  
13.3591  27.7789  
13.1355  27.1911  
12.9119  26.6475  
12.6883  26.137  
12.4647  25.6598  
12.2411  25.2207  
12.0175  24.8234  
11.7939  24.9672  
12.6532  26.662  
13.5125  29.2461  
14.3718  33.2024  
15.2311  39.5559  
16.0904  50.3044  
16.9497  70.0646  
17.809  108.521  
18.6683  35.4441  
19.5276  40.897  
20.3869  49.1787  
21.2462  60.345  
22.1055  70.3065  
22.9648  72.9023  
23.5626  68.5043  
24.1604  60.7568  
24.7581  51.8787  
25.3559  43.5351  
25.9537  36.4804  
26.5515  30.8273  
27.1493  26.3978  
27.747  22.9392  
28.3448  20.2187  
28.9426  18.0499  
29.5404  16.2923  
30.1382  15.1477  
29.2567  17.2411  
28.3752  19.9314  
27.4938  23.4239  
26.6123  27.9084  
25.7308  33.3772  
24.8494  39.2623  
23.9679  44.1193  
23.0864  46.1175  
22.205  44.54  
21.3235  40.4979  
20.442  35.7475  
19.5605  32.0128  
18.6791  29.3309  
19.4307  31.0277  
20.1823  33.0232  
20.9339  35.6477  
21.6855  37.6392  
22.4372  38.4106  
23.1888  37.2074  
23.0105  37.2127  
22.2461  36.1344  
22.1953  35.9029  
22.8754  35.3079  
23.1846  34.6732  
22.6349  34.5733  
22.0457  33.5884  
22.1546  33.5476  
22.7822  33.0211  
23.1072  32.3991  
22.7101  32.4616  
22.0672  31.7264  
21.8559  31.3067  
22.229  31.3287  
22.7976  30.6978  
22.9654  30.3516  
22.5559  30.4129  
21.9488  29.8768  
21.6416  29.4036  
21.8227  29.4329  
22.3266  29.2158  
22.7411  28.6831  
22.7201  28.6006  
22.2673  28.6347  
21.7  28.2241  
21.3693  27.8214  
21.4348  27.8053  
21.8279  27.8028  
22.293  27.4583  
22.5218  27.1629  
22.3556  27.228  
21.8782  27.2468  
21.3443  26.9383  
21.0108  26.6265  
21.0104  26.6055  
21.3168  26.6907  
21.7607  26.5457  
22.0989  26.2633  
22.1401  26.2055  
21.8457  26.352  
21.342  26.342  
20.8498  26.1391  
20.5718  26.1064  
20.7052  26.6218  
21.277  27.5114  
22.1131  27.9513  
22.8271  27.8796  
22.9966  28.5726  
22.5171  29.8338  
21.7944  30.1687  
21.4786  30.6497  
21.8995  31.7338  
22.3203  32.7885  
22.8894  33.1788  
22.9645  34.0231  
22.4504  34.7764  
22.0468  35.0331  
22.2953  35.8956  
22.8906  35.9446  
22.9579  36.3979  
22.368  36.6627  
21.9412  36.4568  
22.1578  36.8576  
22.6489  36.6464  
22.6621  36.8864  
22.0584  37.3309  
21.3774  37.2307  
21.1002  37.6964  
21.2491  38.6442  
21.3706  39.8104  
20.9671  41.9339  
20.1695  43.5675  
20.1506  46.7911  
20.7893  49.8519  
21.4279  50.771  
22.0665  49.3192  
22.7051  46.0761  
23.3437  42.0279  
23.9823  38.0279  
24.621  34.5571  
25.2596  31.7668  
25.8982  29.6113  
26.5368  27.9524  
27.1754  26.6112  
27.814  25.4185  
28.4527  24.2478  
29.0913  23.0151  
29.7299  21.6856  
30.3685  20.2684  
31.0071  18.8021  
31.6457  17.3363  
32.2844  15.9178  
32.923  14.8437  
32.0462  17.203  
31.1693  20.4475  
30.2925  25.2244  
29.4157  32.7935  
28.5389  45.5806  
27.6621  67.7432  
26.7853  28.3278  
25.9084  29.5126  
25.0316  30.6558  
24.1548  32.0162  
23.278  33.7062  
22.4012  35.6358  
21.5244  37.5524  
20.6476  39.0889  
19.7707  40.1445  
18.8939  40.4759  
19.2664  42.9043  
19.6389  45.8656  
20.1846  49.0583  
20.7024  52.2124  
21.2201  53.9314  
21.7378  53.834  
22.2556  52.1685  
22.7733  49.7281  
23.291  47.4938  
23.8088  46.3511  
24.3265  47.0485  
24.8443  50.2931  
25.362  57.2926  
25.8797  69.7919  
26.3975  90.2445  
26.9152  22.862  
26.774  23.1096  
26.6328  23.3627  
26.4916  23.6225  
26.3503  23.8898  
26.2091  24.1841  
26.0679  24.4511  
25.9267  24.7066  
25.7855  25.0505  
25.6442  25.4778  
25.503  25.9565  
25.3618  26.4887  
25.2206  27.112  
25.0794  27.7608  
24.9381  28.3855  
24.7969  29.117  
24.6557  30.0224  
24.5145  30.9152  
24.3733  31.8591  
24.232  32.9881  
24.0908  34.2128  
23.9496  35.4699  
23.8084  36.9319  
23.6672  38.4523  
23.5259  40.1975  
23.3847  41.9974  
23.2435  44.072  
23.1023  46.2219  
22.9611  48.3807  
22.8198  50.4943  
22.6786  52.4988  
22.5374  54.3236  
22.3962  55.8961  
22.255  57.1481  
22.1137  58.0227  
21.9725  58.4806  
21.8313  58.5053  
21.6901  58.1055  
21.5489  57.3138  
21.4076  56.1829  
21.2664  54.7801  
21.1252  53.1794  
20.984  51.4559  
20.8428  49.6794  
20.7015  47.9115  
20.5603  46.203  
20.4191  44.5936  
20.2779  43.4874  
19.5453  42.6866  
18.7088  40.4389  
19.2036  40.5952  
20.0896  39.4284  
20.9357  37.6812  
20.4197  38.0863  
19.9036  38.1879  
19.3876  38.628  
18.7891  38.1005  
18.9632  38.6478  
19.683  38.3549  
19.8702  38.4906  
19.231  38.7029  
18.7706  38.3692  
19.1519  39.0075  
19.8484  38.5135  
19.7543  39.0847  
19.0251  38.8641  
18.8376  39.0508  
19.4785  39.3635  
19.9614  39.1089  
19.4597  39.7344  
18.8506  39.3061  
19.1361  40.0935  
19.8934  39.6487  
19.7784  40.3795  
19.0058  40.0595  
18.9892  40.6796  
19.7835  40.5532  
19.9179  41.0645  
19.1222  40.9843  
18.9922  41.5096  
19.7944  41.4843  
19.9246  42.0772  
19.0972  41.8994  
19.1133  42.7244  
19.9776  42.3926  
19.747  43.3669  
18.9759  42.9825  
19.4572  43.9931  
20.145  43.7297  
20.5707  43.5604  
20.9964  42.7122  
21.4221  41.2866  
21.8478  39.4387  
22.2735  37.3422  
22.6992  35.1573  
23.1249  33.012  
23.5506  30.997  
23.9763  29.1693  
24.402  27.5605  
24.8277  26.1847  
25.2534  25.0462  
25.6791  24.5877  
24.789  26.8834  
23.8989  30.4321  
23.0088  35.406  
22.1187  41.7116  
21.2287  48.3467  
20.3386  52.8715  
19.4485  53.406  
19.683  54.2731  
19.9959  48.6475  
19.3049  55.2658  
18.614  52.4611  
17.9231  47.7772  
17.2322  42.6373  
16.5413  37.9224  
15.8503  33.9631  
15.1594  30.777  
14.4685  28.262  
13.7776  26.2948  
13.0866  24.8143  
13.7404  26.5381  
14.3942  29.0745  
15.048  33.0017  
15.7018  39.5158  
16.3556  51.3356  
17.0095  75.5071  
17.6633  25.0294  
18.3171  26.208  
18.9709  27.6825  
19.6247  29.4555  
20.2785  31.7937  
20.9323  34.6066  
21.5861  36.8863  
22.2399  38.0209  
22.8937  37.7813  
23.6618  35.5805  
23.3506  34.6778  
23.0393  33.7916  
22.4493  32.4754  
22.1082  31.2946  
22.1441  30.5659  
22.3513  29.8772  
22.4337  29.3195  
22.2064  29.179  
21.6623  29.292  
20.953  29.2235  
20.3397  29.1652  
20.2201  29.9028  
20.7099  31.4585  
21.5171  32.3658  
22.0206  33.2013  
21.7177  35.1654  
21.4148  37.6091  
21.1118  40.7385  
20.8089  44.8408  
20.506  50.2974  
20.2031  57.557  
19.9492  67.8372  
19.1515  77.5568  
18.3538  77.708  
17.5561  68.2428  
16.7584  55.5397  
15.9607  44.5228  
15.163  36.4578  
14.3653  30.8829  
13.5676  27.0832  
12.7699  24.5074  
11.9722  22.4661  
12.4663  23.589  
12.9604  25.0267  
13.4546  26.8333  
13.9487  29.1124  
14.4428  32.2905  
14.9369  36.8385  
15.4311  43.3959  
15.9252  53.1343  
16.4193  68.085  
16.9135  91.7656  
17.4076  23.7831  
17.9017  24.5796  
18.3958  25.4381  
18.89  26.3559  
19.3841  27.3308  
19.8782  28.3713  
20.3724  30.3006  
20.8665  32.7027  
21.3606  35.5287  
21.8547  38.8703  
22.3489  42.7461  
22.843  47.2925  
23.6496  50.3671  
24.4562  49.5665  
25.2628  44.8982  
26.0694  38.3042  
26.876  31.8074  
27.6826  26.3855  
28.4892  22.1705  
29.2958  18.9143  
30.1024  16.5347  
30.909  14.5261  
30.3604  15.7819  
29.8118  17.4143  
29.2632  19.5245  
28.7146  21.9831  
28.166  25.1659  
27.6173  29.2895  
27.0687  34.7361  
26.5201  41.85  
25.9715  50.8346  
25.4229  61.3582  
24.8743  72.0036  
24.3257  80.1082  
23.7771  82.9415  
23.2285  79.8587  
22.6799  73.0581  
23.3467  65.1686  
24.0134  55.0987  
24.6802  45.5636  
25.347  37.6968  
26.0137  31.5859  
26.6805  26.9307  
27.3473  23.4339  
28.014  20.7004  
28.6808  18.303  
29.3476  16.5946  
28.4603  18.6208  
27.5731  20.9689  
26.6858  23.7198  
25.7985  27.3047  
24.9113  32.3577  
24.024  40.9129  
23.1368  59.4947  
22.2495  32.6543  
22.0777  33.5531  
22.9248  34.7983  
23.5858  35.2991  
22.8273  37.4993  
22.1196  38.2731  
21.4119  37.3306  
20.7042  34.9541  
19.9965  25.6032  
19.2889  29.5462  
18.5812  27.4074  
17.8735  25.5711  
17.1658  24.1961  
18.0095  26.7062  
18.8531  30.4058  
19.6968  36.1846  
20.5405  46.4819  
21.3841  62.7423  
22.2278  21.7551  
22.9924  21.6659  
23.5164  21.5997  
23.6889  21.8871  
23.4527  22.7017  
22.8006  23.5675  
22.1484  24.5494  
21.4962  25.6756  
20.844  27.0544  
20.102  27.8328  
19.8288  29.2834  
19.4503  30.9926  
19.3985  33.3343  
19.8431  36.0382  
20.0462  39.4617  
20.6187  42.8828  
21.1912  44.8736  
21.7637  44.9299  
22.3362  43.0968  
22.9087  39.9416  
23.4812  36.202  
24.0537  32.4575  
24.6262  29.0195  
25.1987  25.9876  
25.7712  23.3487  
26.3437  21.0504  
26.9162  19.0252  
27.4887  17.2459  
28.0612  15.7782  
28.6337  14.7716  
27.8226  16.4897  
27.0116  18.4433  
26.2005  20.8251  
25.3895  24.3133  
24.5784  29.9851  
23.7673  40.2133  
22.9563  60.5899  
22.1452  24.0561  
21.6108  24.0226  
21.6638  24.8684  
22.3053  25.9523  
23.1347  25.8634  
23.4748  26.0684  
22.9988  26.9238  
22.5228  27.4996  
22.0227  27.5376  
21.937  27.8947  
22.3257  28.3644  
22.8101  28.2451  
22.8666  28.4474  
22.3965  28.7742  
21.8236  28.4872  
21.6059  28.398  
21.8402  28.6011  
22.2527  28.4284  
22.4024  28.332  
22.0681  28.6981  
21.416  28.8238  
20.821  28.6456  
20.5885  28.8604  
20.7732  29.438  
21.1106  29.811  
21.1752  30.4334  
20.7494  31.5109  
20.0929  32.0426  
19.8559  33.2835  
19.3026  34.1899  
19.196  35.5599  
19.7487  36.8896  
20.0273  38.2235  
20.5648  39.2438  
20.0736  40.8958  
19.6457  42.5058  
19.1629  43.6048  
19.9948  38.1005  
20.0091  45.2116  
20.0234  45.8718  
20.1021  46.2777  
19.945  46.5185  
19.788  46.9147  
19.0879  45.8973  
18.3877  42.7477  
17.6876  38.4484  
16.9875  33.8919  
16.2874  29.6408  
15.5872  25.951  
14.8871  22.8814  
14.187  20.4275  
13.4868  18.6136  
14.2569  20.2465  
15.027  22.3188  
15.7972  24.9035  
16.5673  28.0277  
17.3374  31.5522  
18.1075  34.9686  
18.8776  37.2749  
19.6477  37.2436  
20.357  34.9354  
20.1254  33.5601  
19.6044  31.9478  
19.0312  29.3629  
19.3874  27.7345  
19.9576  25.2149  
19.8504  23.5672  
19.2427  21.7383  
18.7628  19.6934  
18.6972  18.2048  
18.9686  16.9511  
19.3387  15.6115  
19.5765  14.3228  
19.5676  13.3142  
19.3165  12.5557  
18.8969  11.8968  
18.4003  11.2488  
17.9029  10.6114  
17.4512  10.0155  
17.0654  9.48196  
16.7469  9.01381  
16.4868  8.60397  
16.2711  8.24249  
16.0844  7.9206  
15.9113  7.63204  
15.7373  7.37304  
15.5496  7.14186  
15.3366  6.93823  
15.088  6.76302  
14.7945  6.63175  
14.4471  6.90376  
14.0556  7.17418  
13.629  7.43982  
13.1756  7.69986  
12.701  7.95592  
12.2081  8.21197  
11.6954  8.4746  
11.1568  8.75411  
10.5796  9.06086  
9.94291  9.42854  
9.21486  9.914  
8.34675  10.332  
7.47865  10.8535  
6.61054  11.5119  
5.74244  12.3518  
4.87433  13.4366  
4.00623  14.8609  
3.13812  16.7739  
2.27002  19.4259  
1.40192  23.2727  
0.533811  29.2386  
-0.334293  35.0033  
